#T/K Taveraged/K integrand/(eV K^2) rho/A^-3 potentialEnergy/(eV) P/bar Ptarget/bar v/A^3
225 224.925450908142 -7.63637936290089e-05 0.216909670398681 -4.75266156285105 299952.173047469 300000 4.61021400365413
275 274.53248524927 -5.10591114516866e-05 0.216455887251314 -4.74679808968412 300094.044349549 300000 4.61987896332411
325 324.516603694729 -3.64140221872694e-05 0.21604653255065 -4.74045440973104 299830.230013476 300000 4.62863249038983
375 375.27374702416 -2.71240720864957e-05 0.215549918457576 -4.73415969055506 299899.007755021 300000 4.63929658222913
425 425.153579738033 -2.10502847790199e-05 0.215144048285883 -4.72730948684318 299951.452499485 300000 4.64804863516932
475 474.78407135442 -1.68089126019515e-05 0.214538532687143 -4.72053662797402 300014.571555931 300000 4.66116733192298
525 525.511932517859 -1.3661454896769e-05 0.214000061682543 -4.71366751026994 300109.111469186 300000 4.67289584936402
575 574.658494622933 -1.13730494577412e-05 0.213301049999868 -4.70593638945355 300103.180934052 300000 4.68820945794979
625 624.668189978911 -9.58672109572826e-06 0.212741198400189 -4.69921154323712 299998.905183012 300000 4.70054699099181
675 674.74331804269 -8.17876817854388e-06 0.212034871274885 -4.69096724105747 299863.864227667 300000 4.71620537691456
725 725.166279901493 -7.04461803839414e-06 0.21119698600503 -4.68286482665747 300178.545874183 300000 4.73491605593359
775 775.482019761195 -6.13165660711415e-06 0.210323577181557 -4.67474448460747 299818.553483001 300000 4.75457869916683
800 799.356400486773 -5.75933212151438e-06 0.209978137898523 -4.67154608483073 299720.696877387 300000 4.76240055278171
825 825.49820619206 -5.38893315019794e-06 0.209696211418261 -4.66809402931034 299728.411179906 300000 4.7688033714896
875 875.123074879728 -4.77010995190074e-06 0.208708787786637 -4.66064160916128 299925.367528771 300000 4.79136509106794
900 900.175599769678 -4.49796058144308e-06 0.208484418109368 -4.65641816538964 299804.997678091 300000 4.79652152937115
925 923.967744780766 -4.25913680125939e-06 0.208199816654389 -4.65334910507525 300310.672629149 300000 4.80307819703798
950 950.094645786211 -4.0200992068415e-06 0.207854038821309 -4.64957824632664 299808.335077174 300000 4.81106840969154
975 974.503191024049 -3.81300821727226e-06 0.207384254395789 -4.64645401027211 299750.584011082 300000 4.82196685044139
1000 1001.04443618981 -3.60334041129851e-06 0.207033581899153 -4.64297390890344 300237.054155509 300000 4.83013427496561
1025 1025.7177104285 -3.42510520764647e-06 0.206767969870214 -4.63939010796433 300004.399329418 300000 4.83633901627844
1050 1050.96507819139 -3.25643359678602e-06 0.206565180903722 -4.63575643706281 299762.494880732 300000 4.84108694226686
1075 1075.34805076811 -3.10230768257063e-06 0.206205345292023 -4.63330497748921 300394.628798323 300000 4.84953480999159
1100 1100.25866132503 -2.9576724384971e-06 0.205817073111793 -4.62943489275485 299815.123534896 300000 4.85868341669029
1125 1124.76716907913 -2.8247056399945e-06 0.205647201355127 -4.62630481487357 299829.703365412 300000 4.86269685855402
1150 1149.71835657738 -2.69749523740501e-06 0.205309854027319 -4.62306545111807 299776.297555295 300000 4.87068681986855
1175 1173.16064813984 -2.58497483766972e-06 0.2050311836192 -4.62046885152418 300152.475340321 300000 4.87730686790201
1200 1199.41363153085 -2.46751309960168e-06 0.204746384613561 -4.61710643362028 300110.347815472 300000 4.88409112516151
1225 1225.20280500584 -2.35948822812007e-06 0.20439709602671 -4.61417855263494 300052.022940713 300000 4.89243741442062
1250 1249.21801736237 -2.26473979254823e-06 0.204175434741971 -4.61048433116685 299950.054806128 300000 4.89774884654347
1275 1276.08635901782 -2.16532873855551e-06 0.203880634426735 -4.6079231799072 300339.774169448 300000 4.90483072515332
1300 1300.76020674998 -2.07992339097563e-06 0.203670753489772 -4.60453369598095 300182.084479892 300000 4.9098851104816
1325 1325.35315317664 -1.99981907255636e-06 0.203402886094939 -4.6015312791011 299784.772518363 300000 4.91635108625374
1350 1351.81938640917 -1.91732369104584e-06 0.203142890424727 -4.59862073842351 300302.588393204 300000 4.92264335665019
1400 1400.021554562 -1.77988878433686e-06 0.202549526563706 -4.59225635703726 300122.440153006 300000 4.93706411940431
1450 1448.44768139249 -1.65634951177652e-06 0.202168194677069 -4.58588176529038 300017.853966646 300000 4.94637646439559
1500 1500.42715039491 -1.53672329590509e-06 0.201646689678436 -4.58025305250317 300209.89225805 300000 4.95916893847695
1550 1547.91530896313 -1.4381856898968e-06 0.201214538407301 -4.57378968180737 299994.230922387 300000 4.96981981478788
1600 1598.76296489417 -1.34235323149753e-06 0.200724271308021 -4.56805428744921 299998.154932634 300000 4.98195855181585
1650 1648.04420401671 -1.25794786744511e-06 0.200266165352036 -4.56223904890654 300012.81040238 300000 4.99335470992895
1700 1698.30110629263 -1.17964266156987e-06 0.199851344832693 -4.55592393913112 299888.064462365 300000 5.00371914353219
1750 1750.85415765813 -1.10472548367509e-06 0.199364977250908 -4.55035506971066 300459.681488362 300000 5.01592613602069
1800 1799.8030025848 -1.04171842640692e-06 0.198944072748215 -4.54452778173123 299579.102368181 300000 5.02653829383299
1850 1847.28779401163 -9.84675917473401e-07 0.198623751527267 -4.53847506541174 299775.338164714 300000 5.03464460977479
1900 1900.67326068098 -9.25712065303755e-07 0.198057851189554 -4.53301465926517 300083.7510908 300000 5.04902983645388
1950 1947.98310921915 -8.77651915374614e-07 0.197710488698881 -4.52682365268793 299926.506806988 300000 5.05790060295199
2000 1999.28281835134 -8.29727284419511e-07 0.19732287553251 -4.52111738656443 299992.204820611 300000 5.06783614064677
