#T/K Taveraged/K integrand/(eV K^2) rho/A^-3 potentialEnergy/(eV) P/bar Ptarget/bar v/A^3
500 499.173583662152 -1.25710089486043e-05 0.273054146113618 -4.55087567102143 600132.186996361 600000 3.66227729640076 15.8937328426997 7.92530394756275 11.1897402172177 90 90 90
520 521.031804192982 -1.15132453387173e-05 0.272949294201273 -4.54855853396583 599825.040383792 600000 3.6636841393061 15.8489431607897 7.97045759481822 11.1846497326833 90 90 90
540 541.270839388258 -1.0651365342768e-05 0.272925231692691 -4.54580666674628 601008.168151327 600000 3.66400714876366 15.8567667539714 7.95741228713727 11.093953054651 90 90 90
560 559.30950156204 -9.9593763176122e-06 0.272814507091108 -4.54377861108192 599322.574736975 600000 3.66549422412513 15.7417085125279 7.95523316529159 11.1497331343718 90 90 90
580 579.05845387784 -9.27865921754486e-06 0.272733623090478 -4.54090913994618 600265.954013321 600000 3.66658129154928 15.9886116808435 7.95078555976072 11.0468003128953 90 90 90
600 603.697920087342 -8.51210934716804e-06 0.272665342660621 -4.5382610419237 600796.410555815 600000 3.66749947111787 15.8456614752925 7.94566817982309 11.1930259772085 90 90 90
620 619.602748558161 -8.08589370787976e-06 0.272539188938251 -4.53614581341477 600042.199474911 600000 3.66919709380425 15.8656428875345 7.87253058817742 11.2347032977824 90 90 90
640 640.785226624076 -7.53285755241579e-06 0.272465208226785 -4.53401698422935 600033.727622324 600000 3.67019336710196 15.914588542681 7.96755002502688 11.2077536298678 90 90 90
660 659.204354593318 -7.09809749279924e-06 0.272354069363156 -4.53084665105238 599984.915536141 600000 3.67169105399562 15.8705930554531 7.89572813176623 11.2692514182452 90 90 90
680 678.036712763984 -6.71011700277967e-06 0.272258416120548 -4.52834898598227 599787.986829504 600000 3.67298103856312 15.9211967665799 7.93144246774293 11.2158737046377 90 90 90
700 700.301786355665 -6.27499403501433e-06 0.272131165460127 -4.52632082411235 599809.389643138 600000 3.67469855321117 15.828545761443 7.92540454111323 11.2510411776275 90 90 90
720 721.203636525803 -5.9049700979658e-06 0.272018238702778 -4.52376416206931 600154.199053981 600000 3.67622408250594 15.7802884875671 7.90725679086258 11.3404522010498 90 90 90
740 740.680324886586 -5.58268550920092e-06 0.271893093154894 -4.52173533249842 600161.851315985 600000 3.67791615592939 15.7410011815749 7.89807807644175 11.218474351855 90 90 90
760 760.385484971254 -5.29444870672397e-06 0.271768244561294 -4.51951871130104 599597.68606225 600000 3.67960576709124 15.8449449968125 7.92740299808788 11.190536719107 90 90 90
780 778.753339073982 -5.03971562680187e-06 0.271647612721473 -4.51700096526002 599717.303229089 600000 3.68123978702263 15.8973320153922 7.97410922704994 11.1204615273593 90 90 90
800 797.759237677599 -4.79064642179042e-06 0.271525638706226 -4.5146366812036 599966.371079491 600000 3.68289346363323 15.8312151335421 7.92106191843853 11.2242465218685 90 90 90
820 821.779680982165 -4.50914211674177e-06 0.271366166027954 -4.51251428756736 600353.982434841 600000 3.68505777502486 15.885535721387 7.99474133837173 11.1583972390153 90 90 90
840 843.725653526808 -4.26905108662468e-06 0.271200645967186 -4.50956778221194 599318.73644675 600000 3.68730685147776 15.9361351594022 7.99112942174443 11.1813336342287 90 90 90
860 859.066835128811 -4.10969739389505e-06 0.27108919038576 -4.50710108633671 599496.984187954 600000 3.68882285043162 15.8979457328433 7.91238571554323 11.2260187446231 90 90 90
880 879.312630900977 -3.91269272302968e-06 0.270938216542453 -4.50588444403308 600024.415572532 600000 3.69087835876897 15.8490536779216 7.91599415159726 11.2986364150117 90 90 90
900 902.904636528926 -3.70579580351668e-06 0.270725020452091 -4.50290746549941 600321.2171769 600000 3.69378492734094 15.8227578045367 7.97048234774101 11.2256699594198 90 90 90
920 918.307831222597 -3.57969410555093e-06 0.27063779353976 -4.50037446030181 599274.49249281 600000 3.69497543902007 15.9475859560985 7.94178452919106 11.1857075524467 90 90 90
940 943.694645384509 -3.38060589625689e-06 0.270426805569785 -4.49859204442444 599415.213187706 600000 3.69785827219685 15.8735444086178 7.88693455885725 11.2436729029694 90 90 90
960 959.439974546416 -3.26050266178246e-06 0.270318694725347 -4.4963899528053 600792.966663104 600000 3.69933718796636 15.7211196260788 7.92342190062524 11.3155923897199 90 90 90
980 978.00992402829 -3.13386935478689e-06 0.27015922176123 -4.49376770994687 600126.134646104 600000 3.70152087898674 15.9518053113359 7.99824749006868 11.160639534385 90 90 90
1000 999.782862553603 -2.99285192927516e-06 0.269935084061486 -4.49170711979689 600033.579570537 600000 3.70459439711889 15.8887493549326 7.91806883895817 11.3243923133351 90 90 90
1020 1021.0601553602 -2.86390897889123e-06 0.269817374846434 -4.48932911008354 600210.781208769 600000 3.70621054544448 16.0507288013944 8.05428521218903 10.9887352904425 90 90 90
1040 1038.46438547383 -2.76450194693835e-06 0.269592276909707 -4.48700911754874 599623.111807884 600000 3.70930507158008 15.934548601528 7.94892109812032 11.2290444208486 90 90 90
1060 1063.88451841835 -2.6299500447543e-06 0.269504045913516 -4.48517606545397 599823.570144079 600000 3.71051943435721 15.8568923027579 7.9395259429826 11.3143998471875 90 90 90
1080 1077.66832061081 -2.55601809904094e-06 0.269267979467279 -4.48291451443385 600097.077421016 600000 3.71377243584033 15.9332816139345 7.92994491402984 11.2163102860449 90 90 90
1100 1102.12399402804 -2.44028939973023e-06 0.269109133071696 -4.48037840777402 599448.899759906 600000 3.71596455529282 15.9227229508615 7.90868150501669 11.2583263196235 90 90 90
1120 1120.49547199678 -2.35708854890112e-06 0.268940286503126 -4.47799744219338 599829.001872564 600000 3.71829751876307 15.914847783707 8.03861004165352 11.2523775051255 90 90 90
1140 1140.75811888962 -2.27004073124051e-06 0.268769324020359 -4.47643354667151 600126.817863882 600000 3.72066270451405 16.0826654699326 7.890912159721 11.2721647220157 90 90 90
1160 1164.42589279004 -2.17134336987417e-06 0.268559230871233 -4.47375726271522 599652.788991828 600000 3.7235733687347 15.969005563054 7.9657040187985 11.2305341725598 90 90 90
1180 1179.05903162282 -2.1157813544696e-06 0.268288151207397 -4.47142806289118 599499.861875613 600000 3.72733568552925 15.9510375270212 7.95761046463516 11.2364407530975 90 90 90
1200 1198.81329234358 -2.04252357530387e-06 0.268235431771703 -4.46977483731809 599749.346257204 600000 3.72806826225369 15.9208783222502 7.98092724359794 11.1881633918101 90 90 90
1220 1217.485552153 -1.97761853342517e-06 0.268023792046512 -4.46774176407954 599600.14153532 600000 3.73101205816259 16.0116694602068 7.96048654301018 11.2053894496389 90 90 90
1240 1243.51973686794 -1.88591736615905e-06 0.267760164811585 -4.46496218409778 601082.626480067 600000 3.73468548132868 15.8552332006148 8.00418966034451 11.2241209048561 90 90 90
1260 1258.36843373745 -1.84240059720643e-06 0.267364548050843 -4.46145730343861 599372.704506941 600000 3.74021165966191 15.8832343146832 8.04632422122009 11.2059835791171 90 90 90
1280 1284.30832470743 -1.76259685649975e-06 0.267268045115414 -4.46004635553949 600509.847697509 600000 3.74156214435651 15.7885797708397 7.96303771741256 11.4637873372397 90 90 90
1300 1298.41081023949 -1.72149514368747e-06 0.267193438888249 -4.4579272566866 600971.962391106 600000 3.7426068699922 15.9492548716742 7.89956734851165 11.3574578248253 90 90 90
1320 1315.78508940215 -1.67487639437152e-06 0.26675015273843 -4.45435881277088 599357.789061729 600000 3.74882634455539 16.0327303455781 8.07107449073099 11.0685874231917 90 90 90
1340 1338.02715644003 -1.61424835486958e-06 0.266521381706225 -4.45175606976659 600511.841903169 600000 3.75204418346539 15.9294895824745 8.01805855604613 11.2947229395447 90 90 90
1360 1361.90042522725 -1.55542976977078e-06 0.266292380929645 -4.44991961734085 599220.604507781 600000 3.75527079110913 16.0500814220054 7.9874572230008 11.2712260330068 90 90 90
1380 1385.02423010527 -1.500095133105e-06 0.265860116696911 -4.44811464522088 598917.358741359 600000 3.76137651793793 16.2189481751298 8.12006512652501 11.2419432612978 90 90 90
1420 1415.29130970164 -1.43218715852263e-06 0.265366350876179 -4.44200445242957 599643.759128991 600000 3.76837529211307 15.9477922506303 8.03651293856547 11.2036235564998 90 90 90
1440 1432.88603237017 -1.39207083595181e-06 0.265069916244391 -4.43829265122255 600162.925772384 600000 3.77258956492828 15.9713802798598 8.05809251693508 11.2299609091622 90 90 90
1460 1460.51157148691 -1.33546728465495e-06 0.264464946952389 -4.4355292151286 599347.446218904 600000 3.7812194452372 15.9973309558607 8.0268068296215 11.2209206740886 90 90 90
1480 1484.82907046063 -1.2874752485294e-06 0.264028851878043 -4.43071187751325 599805.998780083 600000 3.78746486562729 15.9720642030114 7.87761859540536 11.4667935314329 90 90 90
1500 1506.2357526702 -1.24728564482343e-06 0.26371024439555 -4.42955550218217 599599.469017025 600000 3.79204077677034 16.1426939692752 8.05078472207002 11.3047743359435 90 90 90
1520 1520.07756653681 -1.22335977473125e-06 0.263463036851999 -4.42709342294508 600066.927522767 600000 3.79559885116542 16.0631407952104 7.92265532825597 11.4459598168234 90 90 90
1560 1559.29776539862 -1.15517305729985e-06 0.262690891951328 -4.41922807518065 600000.502104496 600000 3.80675550861992 15.9875163321248 8.13755467986148 11.4642888793959 90 90 90
1600 1602.1052785679 -1.08866063564738e-06 0.26175227883387 -4.41371898728894 599102.267387071 600000 3.82040608950986 16.0685149579657 8.03665092277411 11.4143416107093 90 90 90
1620 1618.90663716959 -1.06112628137447e-06 0.261157258638983 -4.40789370429434 599832.309432932 600000 3.82911049538307 16.0672907306651 8.0723412441066 11.2608500291956 90 90 90
1640 1641.9144348018 -1.02757326971058e-06 0.260502592717577 -4.40515592733659 600657.100634372 600000 3.83873338675039 15.9784379393401 8.04822229933102 11.3615982988169 90 90 90
1660 1662.00697302021 -9.98349687932732e-07 0.259596678710589 -4.3998311864804 599743.08175933 600000 3.85212940692068 15.9748967622789 8.06797899734217 11.4782838708604 90 90 90
1680 1679.40085153077 -9.7261864766606e-07 0.258384221297823 -4.39332395357185 600909.098976065 600000 3.87020536694213 16.3730874418594 8.17841050697605 11.2222056560222 90 90 90
