#T/K Taveraged/K integrand/(eV K^2) rho/A^-3 potentialEnergy/(eV) P/bar Ptarget/bar v/A^3
500 500.899202647872 -9.87035178320192e-06 0.303281693426658 -4.38803515488165 900471.357657646 900000 3.29726462781648
560 558.397716481209 -7.89524050187232e-06 0.302807700991826 -4.38285665525064 900488.577876934 900000 3.30242591824636
620 620.231736125037 -6.3556741638804e-06 0.302296118720574 -4.37792960493863 900662.504423751 900000 3.3080146851781
680 681.111255009651 -5.23854285359797e-06 0.301787338764088 -4.3730768218337 899696.221920097 900000 3.31359163076657
740 740.985098964749 -4.39670328164908e-06 0.301314971704964 -4.36743258900881 899816.537663438 900000 3.31878629973674
800 799.52242732587 -3.75219599086769e-06 0.300808223988604 -4.36178127190699 899675.164774027 900000 3.32437719534518
860 858.424094282657 -3.23158712756214e-06 0.300347364222225 -4.35627742987791 900114.504966791 900000 3.32947819465499
920 920.75796373489 -2.79076068527905e-06 0.299843681101096 -4.35060137680138 899367.053576015 900000 3.33507111548179
980 982.670748019457 -2.43102531888189e-06 0.299309617888418 -4.34496945273734 900079.659581564 900000 3.34102193927092
1040 1040.95800304669 -2.15176898478526e-06 0.298805898516309 -4.33956124098809 899969.266291999 900000 3.34665414894887
1100 1102.0757081787 -1.90676443493533e-06 0.298335882297864 -4.33322455454844 899521.116235997 900000 3.35192666835021
1160 1163.89796175651 -1.69598068659304e-06 0.297828170611971 -4.327711632253 899854.203229295 900000 3.35764074279885
1220 1219.74633452449 -1.53437813649468e-06 0.297298517636741 -4.32197114396988 899507.543552167 900000 3.36362255671206
1280 1279.37706757022 -1.38364191034324e-06 0.296769900503812 -4.31643081508751 900014.678195405 900000 3.36961396119468
