#T/K Taveraged/K integrand/(eV K^2) rho/A^-3 potentialEnergy/(eV) P/bar Ptarget/bar v/A^3
1000 999.644087876132 -3.10659944635748e-06 0.243475339237931 -4.51342566719755 499738.616463479 500000 4.10719214163521 33.9706438798225 31.2477809974947 17.832678720035 90 90 90
1020 1019.28534982723 -2.98248574310588e-06 0.243307004866326 -4.51120516770293 499824.358477027 500000 4.11003374337457 33.8337195282014 31.0428645663993 17.9856343507559 90 90 90
1040 1039.4284490838 -2.86196069007651e-06 0.243156361628434 -4.50885705148902 500126.236050563 500000 4.11258004233545 33.9833318047071 30.9884975507974 17.9807512933684 90 90 90
1060 1058.62756393128 -2.75404193384229e-06 0.243034996673705 -4.50564197063168 499892.820266174 500000 4.11463375105021 33.9854183666034 31.0097817255809 17.9440872639797 90 90 90
1100 1096.66892950099 -2.55767646502019e-06 0.242691960141746 -4.50130044346827 499693.80742301 500000 4.12044964083664 33.949497349328 31.1611647026526 17.9353737620219 90 90 90
1120 1119.18304672874 -2.44954658913259e-06 0.242547067468041 -4.49831966195347 500064.115725367 500000 4.12291111345539 33.9108051908033 31.2035853794158 17.9143660600398 90 90 90
1140 1140.58939512199 -2.35380449407088e-06 0.242409615103014 -4.49607895942013 500319.336250828 500000 4.12524890803132 33.9097112623047 31.2595204120997 17.8991764244538 90 90 90
1160 1162.13688772789 -2.26381809081063e-06 0.242251413258937 -4.49382834491763 499775.764812255 500000 4.12794289431501 34.0527837694621 31.0802646813743 18.05762823578 90 90 90
1180 1182.34765304304 -2.18116371208054e-06 0.242082308220548 -4.49163426473714 500715.657062014 500000 4.13082644225679 33.9547092437741 31.1471392906594 17.9095004554845 90 90 90
1200 1202.11926341168 -2.10850300285531e-06 0.24192732866556 -4.48900061451942 499303.380581458 500000 4.13347266518368 33.9037477101846 31.2372674141882 17.9813649412793 90 90 90
1220 1221.38448336711 -2.03794225691856e-06 0.241806119503753 -4.48693373856198 499937.852908209 500000 4.135544634074 33.9795518155335 31.3196741759949 17.9364790037794 90 90 90
1260 1259.59679133226 -1.90798487339247e-06 0.241491306125384 -4.48179512663348 500461.004907297 500000 4.14093582102203 34.0739858900972 31.1895889297812 17.9735176745741 90 90 90
1280 1279.52621603894 -1.84602894438175e-06 0.241355744511591 -4.47904131621474 499849.088384551 500000 4.14326164899702 34.1119216592429 31.0602364821122 18.0164738065445 90 90 90
1300 1299.54632495723 -1.78769494562944e-06 0.24120660504233 -4.47698808284366 499154.75591321 500000 4.14582345215839 34.0185815800677 31.1673956900287 17.9895391575355 90 90 90
1320 1320.47124129209 -1.72838880855995e-06 0.241037901293429 -4.47486414191894 499214.173639239 500000 4.14872513672712 34.0288537849104 31.0754287624519 18.0118227491792 90 90 90
1340 1339.13972503852 -1.67604603481028e-06 0.240888609562199 -4.47151749165372 499568.164803788 500000 4.15129632661936 34.0718419581562 31.0915135135454 18.0253733562821 90 90 90
1360 1357.75682314582 -1.62732824840884e-06 0.240826247792167 -4.46965990801062 499731.195928807 500000 4.15237130158253 34.0128061478142 31.2113942598498 17.9698236091121 90 90 90
1380 1380.72137047844 -1.56864825264728e-06 0.240684365863667 -4.4672130911146 501089.619177869 500000 4.15481909849699 33.9182119841503 31.2130586612013 18.0310131924333 90 90 90
1400 1398.36398963622 -1.52767481657128e-06 0.240466058219185 -4.46506972389848 500250.172490666 500000 4.15859106023395 34.0243806950371 31.1315184235648 18.066828410262 90 90 90
1420 1416.42021954843 -1.48704456337009e-06 0.240227987198909 -4.46315375093219 499626.5064092 500000 4.16271231200052 34.035093122781 31.1796737272564 18.0483345804048 90 90 90
1440 1442.5540335915 -1.43007135417012e-06 0.240147026079863 -4.46062516422125 500128.855787182 500000 4.16411569330633 34.1586224969213 31.18772705375 18.0281376692405 90 90 90
1460 1459.94907595197 -1.3934825802184e-06 0.24002635963935 -4.45802743269023 500141.779872361 500000 4.16620908429617 34.1229275056505 31.3069140530453 18.0235779310636 90 90 90
1480 1478.65256912867 -1.35552631155307e-06 0.239949082177961 -4.45555115927589 500584.991028892 500000 4.16755084421761 34.2310522705591 31.1624362972717 18.0304174858257 90 90 90
1500 1498.62020986258 -1.31732848937191e-06 0.239733964758146 -4.45301448967064 500090.212472127 500000 4.1712904594426 33.9700528707618 31.3798714196098 18.0473132493857 90 90 90
1520 1518.84747289702 -1.28021914141717e-06 0.239518859205819 -4.45177731257578 500206.28521454 500000 4.17503658507616 34.0083739060275 31.2530183392717 18.1562081967396 90 90 90
1560 1558.56246399838 -1.21081148295983e-06 0.239331284618743 -4.44614600572753 500608.046978967 500000 4.17830874719537 34.1489929635444 31.131507954498 18.1208669942018 90 90 90
1580 1578.49197468577 -1.18535408447711e-06 0.239051098809596 -4.4452037173212 500248.088148208 500000 4.18320603828932 17.0651688259372 9.29623510166267 10.1618168395467 90 90 90
1600 1608.15640975992 -1.13859542811296e-06 0.238907968922428 -4.44295395313082 501051.968243688 500000 4.18571219918031 17.0126591213579 9.19367620456209 10.2303064716787 90 90 90
1620 1623.44012384591 -1.11043701726552e-06 0.238798880801693 -4.44013598605753 499370.455071882 500000 4.18762431650773 34.1346112187927 31.3054544157794 18.0165702664836 90 90 90
1640 1642.76993214206 -1.08646936477505e-06 0.238588067741237 -4.43862325709432 500487.207163535 500000 4.19132444244681 17.393779246392 8.98579207828481 10.3218198530109 90 90 90
1680 1679.99078926687 -1.035201344302e-06 0.238288288104313 -4.43332263752833 501016.211856651 500000 4.19659735673724 16.9149261583575 9.25198718274939 10.5297858613816 90 90 90
1760 1753.00570544625 -9.43038533915227e-07 0.237717876346588 -4.42363259824603 501033.601795454 500000 4.20666722826523 17.1592299534424 8.99441729636445 10.4942118864335 90 90 90
1780 1782.92789552106 -9.11966511753714e-07 0.237715742507813 -4.42183580179942 498925.986556316 500000 4.20670498912007 17.2689793277834 8.97765938915979 10.3099592568575 90 90 90
1800 1800.36794930997 -8.92126738369177e-07 0.237535376982353 -4.41893731230872 499182.053751803 500000 4.20989922723928 17.108314834903 9.14654183067245 10.3884564087234 90 90 90
1820 1815.31838146917 -8.76972018663834e-07 0.237404136022572 -4.41806135023016 498617.863024174 500000 4.21222652963772 17.0865949049804 8.80543924521513 10.4858807479254 90 90 90
1840 1838.05104937893 -8.51158865300476e-07 0.236971478034629 -4.41618479613039 501528.617417414 500000 4.21991713219541 16.8382271427507 9.07886146201777 10.6511932527206 90 90 90
1880 1889.60981891129 -8.02257611064462e-07 0.236827939942073 -4.41059644841273 500677.945001693 500000 4.222474764779 17.1727451348897 8.95847021345925 10.3469445283509 90 90 90
1900 1905.20110238026 -7.87779004654245e-07 0.236650837262511 -4.40910912137527 500529.436916683 500000 4.22563474343734 17.2195248610347 8.99587747617281 10.2677617668307 90 90 90
1920 1913.18934703833 -7.79293345859156e-07 0.236439940448494 -4.40572222657451 501327.463051313 500000 4.22940387357203 17.319819217562 9.09286401894899 10.3302388783729 90 90 90
