#T/K Taveraged/K integrand/(eV K^2) rho/A^-3 potentialEnergy/(eV) P/bar Ptarget/bar v/A^3
500 499.926224351955 -1.44108113790076e-05 0.248751169776361 -4.65902977725755 399977.645985108 400000 4.02008159760231
560 560.293396746393 -1.14129722599893e-05 0.248238703750501 -4.65050785179208 399822.529752318 400000 4.02838068718357
620 620.840113621484 -9.24690011900767e-06 0.247833127631795 -4.6414484972021 399693.826995371 400000 4.03497308675255
680 677.724662333683 -7.71998788880843e-06 0.247251081139687 -4.63359797624803 399801.86775823 400000 4.0444716981239
740 739.27524607086 -6.45517393821394e-06 0.246386470790812 -4.62637640797898 399547.23933611 400000 4.05866440957719
800 800.199308826168 -5.47901736881258e-06 0.245742954713232 -4.61868976747208 400283.556844981 400000 4.06929265242595
860 860.338219954928 -4.7152796293135e-06 0.244829257585566 -4.61207041802103 400176.298924598 400000 4.08447915850297
920 919.818030321408 -4.1025882610813e-06 0.243868834829007 -4.60478309342877 400451.997324141 400000 4.1005649643636
980 979.610461811324 -3.59978651553714e-06 0.24291764520297 -4.59821781949159 399800.844486598 400000 4.11662149599898
1040 1039.94591796952 -3.17377229186617e-06 0.241688556178122 -4.59086901194472 400286.832281331 400000 4.13755626585402
1100 1098.89686193064 -2.82519250155567e-06 0.240284638948798 -4.58392737058598 400365.053863255 400000 4.1617308720808
1160 1158.66133753578 -2.52652209053888e-06 0.238963940203644 -4.57667502094238 399886.484725603 400000 4.18473180157561
1220 1218.91285741493 -2.26497684512421e-06 0.236515289030146 -4.56826163762382 399766.78970123 400000 4.22805647829617
1250 1247.03519516976 -2.15538327638301e-06 0.235444190118459 -4.56471452688536 400225.488179183 400000 4.2472910437793
1270 1271.49619172163 -2.06527264946161e-06 0.233882988524389 -4.56046234561231 399395.507443272 400000 4.27564230433853
1275 1274.75422289319 -2.05258072847674e-06 0.233461220887731 -4.55944581763993 399966.863943782 400000 4.28336661736593
1280 1280.93316035869 -2.02884758219739e-06 0.232864351445248 -4.55805658813076 400103.799037748 400000 4.29434558700637
1290 1289.41656697812 -1.99782677989491e-06 0.231845361508032 -4.55536923051848 399909.671909305 400000 4.31321978363305
1300 1301.31815897627 -1.95571818454083e-06 0.230932486052005 -4.55287090822323 400291.712512385 400000 4.33026992908569
1305 1303.51282739542 -1.94537485363314e-06 0.230166087070303 -4.55097358925164 400649.525742767 400000 4.34468871035095
1310 1310.35626075318 -1.923677430694e-06 0.229554836856758 -4.54882157992522 399519.616862248 400000 4.35625758835131
